0.004	0
0.008	0
0.012	0
0.016	0
0.02	0
0.024	0
0.028	0
0.032	0
0.036	0
0.04	0
0.044	0
0.048	0
0.052	0
0.056	0
0.06	0
0.064	0
0.068	0
0.072	0
0.076	0
0.08	3
0.084	19
0.088	41
0.092	67
0.096	96
0.1	122
0.104	148
0.108	170
0.112	187
0.116	198
0.12	208
0.124	210
0.128	230
0.132	251
0.136	279
0.14	308
0.144	313
0.148	324
0.152	354
0.156	381
0.16	399
0.164	427
0.168	445
0.172	443
0.176	449
0.18	452
0.184	458
0.188	493
0.192	502
0.196	463
0.2	424
0.204	379
0.208	323
0.212	298
0.216	290
0.22	277
0.224	269
0.228	297
0.232	328
0.236	341
0.24	359
0.244	379
0.248	383
0.252	377
0.256	390
0.26	390
0.264	392
0.268	404
0.272	400
0.276	389
0.28	389
0.284	387
0.288	375
0.292	371
0.296	347
0.3	316
0.304	326
0.308	342
0.312	343
0.316	347
0.32	354
0.324	352
0.328	349
0.332	345
0.336	332
0.34	323
0.344	324
0.348	327
0.352	328
0.356	329
0.36	316
0.364	293
0.368	288
0.372	286
0.376	271
0.38	262
0.384	263
0.388	254
0.392	254
0.396	263
0.4	257
0.404	255
0.408	273
0.412	266
0.416	251
0.42	246
0.424	241
0.428	234
0.432	260
0.436	313
0.44	380
0.444	464
0.448	494
0.452	425
0.456	339
0.46	272
0.464	228
0.468	229
0.472	261
0.476	273
0.48	274
0.484	285
0.488	290
0.492	283
0.496	286
0.5	290
0.504	285
0.508	289
0.512	297
0.516	289
0.52	288
0.524	305
0.528	304
0.532	298
0.536	308
0.54	312
0.544	305
0.548	309
0.552	315
0.556	320
0.56	324
0.564	317
0.568	306
0.572	324
0.576	341
0.58	325
0.584	314
0.588	332
0.592	330
0.596	319
0.6	322
0.604	317
0.608	309
0.612	314
0.616	314
0.62	299
0.624	304
0.628	310
0.632	297
0.636	293
0.64	298
0.644	286
0.648	280
0.652	283
0.656	278
0.66	280
0.664	285
0.668	278
0.672	267
0.676	275
0.68	276
0.684	264
0.688	267
0.692	279
0.696	273
0.7	271
0.704	272
0.708	269
0.712	276
0.716	282
0.72	277
0.724	270
0.728	278
0.732	279
0.736	273
0.74	277
0.744	278
0.748	272
0.752	280
0.756	286
0.76	278
0.764	280
0.768	284
0.772	278
0.776	278
0.78	287
0.784	283
0.788	279
0.792	285
0.796	283
0.8	286
0.804	301
0.808	297
0.812	287
0.816	299
0.82	311
0.824	307
0.828	308
0.832	311
0.836	299
0.84	292
0.844	297
0.848	298
0.852	297
0.856	304
0.86	302
0.864	294
0.868	307
0.872	321
0.876	311
0.88	315
0.884	317
0.888	308
0.892	306
0.896	300
0.9	290
0.904	301
0.908	350
0.912	410
0.916	487
0.92	559
0.924	539
0.928	437
0.932	342
0.936	281
0.94	262
0.944	273
0.948	295
0.952	295
0.956	297
0.96	300
0.964	294
0.968	294
0.972	304
0.976	297
0.98	291
0.984	299
0.988	300
0.992	290
0.996	294
1	298
1.004	290
1.008	293
1.012	298
1.016	288
1.02	290
1.024	294
1.028	288
1.032	290
1.036	299
1.04	292
1.044	290
1.048	298
1.052	297
1.056	294
1.06	300
1.064	301
1.068	294
1.072	298
1.076	301
1.08	299
1.084	305
1.088	312
1.092	302
1.096	298
1.1	307
1.104	304
1.108	300
1.112	313
1.116	309
1.12	297
1.124	303
1.128	304
1.132	295
1.136	299
1.14	305
1.144	297
1.148	294
1.152	301
1.156	295
1.16	300
1.164	310
1.168	306
1.172	305
1.176	314
1.18	317
1.184	314
1.188	322
1.192	323
1.196	312
1.2	316
1.204	325
1.208	322
1.212	325
1.216	333
1.22	324
1.224	325
1.228	335
1.232	327
1.236	322
1.24	330
1.244	326
1.248	325
1.252	331
1.256	331
1.26	324
1.264	326
1.268	335
1.272	334
1.276	336
1.28	341
1.284	330
1.288	326
1.292	334
1.296	336
1.3	331
1.304	334
1.308	335
1.312	338
1.316	346
1.32	345
1.324	330
1.328	326
1.332	331
1.336	322
1.34	319
1.344	326
1.348	320
1.352	317
1.356	322
1.36	317
1.364	314
1.368	322
1.372	320
1.376	314
1.38	321
1.384	320
1.388	303
1.392	297
1.396	308
1.4	324
1.404	379
1.408	462
1.412	537
1.416	565
1.42	507
1.424	405
1.428	307
1.432	277
1.436	284
1.44	295
1.444	312
1.448	316
1.452	310
1.456	318
1.46	321
1.464	312
1.468	314
1.472	323
1.476	318
1.48	319
1.484	331
1.488	327
1.492	320
1.496	330
1.5	330
1.504	321
1.508	332
1.512	341
1.516	334
1.52	336
1.524	339
1.528	332
1.532	341
1.536	350
1.54	342
1.544	341
1.548	351
1.552	348
1.556	341
1.56	352
1.564	355
1.568	348
1.572	356
1.576	361
1.58	351
1.584	354
1.588	360
1.592	353
1.596	355
1.6	361
1.604	352
1.608	348
1.612	356
1.616	348
1.62	337
1.624	343
1.628	338
1.632	332
1.636	337
1.64	336
1.644	328
1.648	332
1.652	335
1.656	328
1.66	329
1.664	335
1.668	327
1.672	326
1.676	334
1.68	332
1.684	331
1.688	336
1.692	334
1.696	328
1.7	332
1.704	335
1.708	327
1.712	329
1.716	332
1.72	322
1.724	324
1.728	330
1.732	326
1.736	325
1.74	327
1.744	320
1.748	318
1.752	332
1.756	330
1.76	320
1.764	323
1.768	326
1.772	320
1.776	327
1.78	332
1.784	326
1.788	327
1.792	332
1.796	325
1.8	324
1.804	331
1.808	325
1.812	321
1.816	335
1.82	333
1.824	326
1.828	332
1.832	333
1.836	326
1.84	328
1.844	334
1.848	332
1.852	336
1.856	343
1.86	338
1.864	338
1.868	349
1.872	345
1.876	342
1.88	347
1.884	334
1.888	323
1.892	332
1.896	335
1.9	326
1.904	329
1.908	331
1.912	320
1.916	321
1.92	330
1.924	324
1.928	324
1.932	329
1.936	320
1.94	315
1.944	317
1.948	314
1.952	325
1.956	385
1.96	463
1.964	535
1.968	566
1.972	509
1.976	405
1.98	320
1.984	283
1.988	276
1.992	293
1.996	323
2	317
2.004	309
2.008	318
2.012	317
2.016	311
2.02	319
2.024	319
2.028	317
2.032	323
2.036	322
2.04	315
2.044	320
2.048	327
2.052	319
2.056	318
2.06	327
2.064	323
2.068	322
2.072	333
2.076	334
2.08	327
2.084	329
2.088	331
2.092	329
2.096	341
2.1	344
2.104	334
2.108	335
2.112	346
2.116	339
2.12	340
2.124	353
2.128	352
2.132	346
2.136	353
2.14	352
2.144	347
2.148	351
2.152	352
2.156	346
2.16	349
2.164	351
2.168	336
2.172	335
2.176	341
2.18	337
2.184	332
2.188	334
2.192	333
2.196	332
2.2	337
2.204	333
2.208	328
2.212	334
2.216	338
2.22	333
2.224	335
2.228	336
2.232	327
2.236	330
2.24	340
2.244	333
2.248	330
2.252	338
2.256	331
2.26	330
2.264	338
2.268	332
2.272	325
2.276	334
2.28	337
2.284	320
2.288	326
2.292	342
2.296	335
2.3	330
2.304	334
2.308	326
2.312	324
2.316	333
2.32	331
2.324	326
2.328	331
2.332	330
2.336	323
2.34	326
2.344	330
2.348	328
2.352	333
2.356	332
2.36	321
2.364	327
2.368	339
2.372	333
2.376	328
2.38	334
2.384	331
2.388	331
2.392	336
2.396	331
2.4	324
2.404	334
2.408	340
2.412	334
2.416	337
2.42	342
2.424	336
2.428	339
2.432	349
2.436	349
2.44	343
2.444	343
2.448	337
2.452	327
2.456	329
2.46	335
2.464	331
2.468	337
2.472	336
2.476	330
2.48	336
2.484	341
2.488	333
2.492	331
2.496	336
2.5	328
2.504	318
2.508	317
2.512	322
2.516	362
2.52	425
2.524	495
2.528	543
2.532	519
2.536	441
2.54	347
2.544	294
2.548	288
2.552	296
2.556	313
2.56	331
2.564	326
2.568	325
2.572	336
2.576	329
2.58	321
2.584	331
2.588	334
2.592	326
2.596	329
2.6	330
2.604	318
2.608	325
2.612	334
2.616	329
2.62	324
2.624	330
2.628	334
2.632	334
2.636	341
2.64	338
2.644	332
2.648	339
2.652	338
2.656	336
2.66	344
2.664	345
2.668	343
2.672	351
2.676	352
2.68	347
2.684	357
2.688	359
2.692	349
2.696	343
2.7	356
2.704	355
2.708	347
2.712	353
2.716	351
2.72	343
2.724	350
2.728	350
2.732	338
2.736	341
2.74	339
2.744	331
2.748	333
2.752	337
2.756	329
2.76	328
2.764	337
2.768	331
2.772	329
2.776	340
2.78	336
2.784	329
2.788	337
2.792	339
2.796	333
2.8	338
2.804	339
2.808	329
2.812	333
2.816	341
2.82	333
2.824	329
2.828	340
2.832	334
2.836	327
2.84	334
2.844	332
2.848	327
2.852	332
2.856	332
2.86	332
2.864	337
2.868	335
2.872	326
2.876	336
2.88	338
2.884	327
2.888	326
2.892	334
2.896	326
2.9	324
2.904	337
2.908	337
2.912	324
2.916	332
2.92	336
2.924	329
2.928	335
2.932	337
2.936	330
2.94	331
2.944	338
2.948	336
2.952	338
2.956	344
2.96	345
2.964	342
2.968	349
2.972	348
2.976	345
2.98	347
2.984	345
2.988	332
2.992	330
2.996	336
3	330
3.004	332
3.008	333
3.012	327
3.016	327
3.02	337
3.024	331
3.028	329
3.032	336
3.036	329
3.04	321
3.044	323
3.048	318
3.052	318
3.056	364
3.06	437
3.064	505
3.068	552
3.072	518
3.076	429
3.08	339
3.084	300
3.088	292
3.092	300
3.096	320
3.1	321
3.104	314
3.108	323
3.112	326
3.116	315
3.12	319
3.124	330
3.128	327
3.132	326
3.136	330
3.14	324
3.144	322
3.148	334
3.152	330
3.156	324
3.16	335
3.164	332
3.168	326
3.172	334
3.176	333
3.18	320
3.184	330
3.188	338
3.192	327
3.196	336
3.2	347
3.204	340
3.208	336
3.212	342
3.216	340
3.22	338
3.224	348
3.228	345
3.232	338
3.236	343
3.24	345
3.244	338
3.248	343
3.252	345
3.256	336
3.26	341
3.264	346
3.268	331
3.272	329
3.276	343
3.28	333
3.284	323
3.288	333
3.292	324
3.296	317
3.3	325
3.304	324
3.308	321
3.312	328
3.316	328
3.32	323
3.324	324
3.328	329
3.332	318
3.336	317
3.34	333
3.344	328
3.348	317
3.352	328
3.356	333
3.36	324
3.364	327
3.368	330
3.372	322
3.376	326
3.38	332
3.384	320
3.388	318
3.392	330
3.396	325
3.4	320
3.404	334
3.408	329
3.412	321
3.416	326
3.42	326
3.424	322
3.428	332
3.432	336
3.436	327
3.44	329
3.444	331
3.448	325
3.452	326
3.456	333
3.46	327
3.464	323
3.468	337
3.472	330
3.476	322
3.48	326
3.484	324
3.488	324
3.492	338
3.496	337
3.5	325
3.504	331
3.508	336
3.512	329
3.516	332
3.52	344
3.524	339
3.528	338
3.532	346
3.536	340
3.54	336
3.544	346
3.548	339
3.552	322
3.556	327
3.56	331
3.564	323
3.568	328
3.572	332
3.576	322
3.58	323
3.584	332
3.588	320
3.592	316
3.596	332
3.6	328
3.604	316
3.608	316
3.612	315
3.616	325
3.62	378
3.624	454
3.628	529
3.632	569
3.636	521
3.64	417
3.644	331
3.648	290
3.652	283
3.656	296
3.66	319
3.664	320
3.668	312
3.672	315
3.676	312
3.68	310
3.684	318
3.688	319
3.692	311
3.696	318
3.7	324
3.704	313
3.708	318
3.712	329
3.716	321
3.72	320
3.724	329
3.728	325
3.732	317
3.736	326
3.74	325
3.744	320
3.748	328
3.752	333
3.756	326
3.76	332
3.764	337
3.768	328
3.772	331
3.776	337
3.78	328
3.784	330
3.788	345
3.792	340
3.796	335
3.8	344
3.804	339
3.808	336
3.812	347
3.816	343
3.82	329
3.824	336
3.828	342
3.832	328
3.836	329
3.84	328
3.844	319
3.848	320
3.852	325
3.856	314
3.86	317
3.864	328
3.868	323
3.872	310
3.876	310
3.88	310
3.884	307
3.888	316
3.892	324
3.896	313
3.9	312
3.904	321
3.908	314
3.912	315
3.916	323
3.92	315
3.924	312
3.928	322
3.932	321
3.936	315
3.94	323
3.944	325
3.948	314
3.952	318
3.956	323
3.96	313
3.964	315
3.968	322
3.972	316
3.976	319
3.98	327
3.984	319
3.988	317
3.992	323
3.996	320
4	317
4.004	324
4.008	326
4.012	317
4.016	327
4.02	329
4.024	317
4.028	320
4.032	329
4.036	323
4.04	319
4.044	327
4.048	322
4.052	319
4.056	326
4.06	322
4.064	321
4.068	328
4.072	327
4.076	316
4.08	320
4.084	329
4.088	321
4.092	330
4.096	335
4.1	322
4.104	320
4.108	329
4.112	325
4.116	324
4.12	331
4.124	326
4.128	320
4.132	331
4.136	334
4.14	327
4.144	330
4.148	336
4.152	330
4.156	337
4.16	351
4.164	343
4.168	336
4.172	337
4.176	323
4.18	316
4.184	327
4.188	326
4.192	317
4.196	323
4.2	326
4.204	316
4.208	320
4.212	323
4.216	318
4.22	320
4.224	327
4.228	315
4.232	305
4.236	312
4.24	333
4.244	388
4.248	474
4.252	549
4.256	559
4.26	494
4.264	407
4.268	316
4.272	285
4.276	297
4.28	301
4.284	311
4.288	318
4.292	311
4.296	307
4.3	317
4.304	312
4.308	309
4.312	318
4.316	320
4.32	311
4.324	316
4.328	319
4.332	319
4.336	324
4.34	326
4.344	322
4.348	319
4.352	324
4.356	323
4.36	320
4.364	323
4.368	324
4.372	321
4.376	329
4.38	330
4.384	325
4.388	334
4.392	335
4.396	327
4.4	333
4.404	342
4.408	333
4.412	335
4.416	345
4.42	335
4.424	336
4.428	348
4.432	344
4.436	341
4.44	345
4.444	343
4.448	335
4.452	339
4.456	338
4.46	328
4.464	330
4.468	331
4.472	318
4.476	320
4.48	326
4.484	315
4.488	315
4.492	332
4.496	324
4.5	314
4.504	319
4.508	326
4.512	319
4.516	327
4.52	325
4.524	319
4.528	323
4.532	328
4.536	320
4.54	324
4.544	331
4.548	323
4.552	323
4.556	331
4.56	321
4.564	319
4.568	331
4.572	330
4.576	322
4.58	328
4.584	329
4.588	320
4.592	329
4.596	334
4.6	323
4.604	322
4.608	331
4.612	324
4.616	322
4.62	331
4.624	324
4.628	324
4.632	336
4.636	333
4.64	322
4.644	331
4.648	336
4.652	328
4.656	330
4.66	331
4.664	324
4.668	326
4.672	334
4.676	333
4.68	332
4.684	335
4.688	329
4.692	327
4.696	339
4.7	333
4.704	324
4.708	332
4.712	335
4.716	325
4.72	334
4.724	338
4.728	327
4.732	327
4.736	334
4.74	330
4.744	327
4.748	333
4.752	330
4.756	326
4.76	332
4.764	328
4.768	325
4.772	336
4.776	336
4.78	324
4.784	332
4.788	339
4.792	328
4.796	331
4.8	342
4.804	332
4.808	325
4.812	337
4.816	336
4.82	330
4.824	338
4.828	342
4.832	340
4.836	347
4.84	348
4.844	339
4.848	341
4.852	340
4.856	329
4.86	326
4.864	332
4.868	330
4.872	326
4.876	329
4.88	324
4.884	323
4.888	331
4.892	329
4.896	323
4.9	328
4.904	328
4.908	312
4.912	315
4.916	330
4.92	361
4.924	425
4.928	510
4.932	566
4.936	547
4.94	472
4.944	371
4.948	295
4.952	292
4.956	306
4.96	310
4.964	323
4.968	326
4.972	319
4.976	322
4.98	327
4.984	315
4.988	317
4.992	324
4.996	320
5	320
5.004	330
5.008	322
5.012	319
5.016	331
5.02	326
5.024	318
5.028	336
5.032	339
5.036	322
5.04	327
5.044	332
5.048	323
5.052	327
5.056	336
5.06	330
5.064	327
5.068	339
5.072	333
5.076	329
5.08	341
5.084	337
5.088	329
5.092	340
5.096	348
5.1	339
5.104	343
5.108	352
5.112	342
5.116	346
5.12	354
5.124	340
5.128	339
5.132	346
5.136	336
5.14	329
5.144	338
5.148	333
5.152	322
5.156	326
5.16	327
5.164	320
5.168	324
5.172	331
5.176	322
5.18	324
5.184	326
5.188	319
5.192	325
5.196	333
5.2	325
5.204	322
5.208	335
5.212	332
5.216	323
5.22	329
5.224	328
5.228	316
5.232	321
5.236	326
5.24	323
5.244	325
5.248	333
5.252	323
5.256	320
5.26	326
5.264	326
5.268	325
5.272	333
5.276	332
5.28	322
5.284	331
5.288	331
5.292	319
5.296	325
5.3	334
5.304	325
5.308	328
5.312	334
5.316	325
5.32	322
5.324	333
5.328	327
5.332	321
5.336	330
5.34	328
5.344	323
5.348	333
5.352	336
5.356	327
5.36	332
5.364	336
5.368	326
5.372	328
5.376	333
5.38	326
5.384	324
5.388	333
5.392	328
5.396	323
5.4	331
5.404	334
5.408	329
5.412	333
5.416	332
5.42	321
5.424	332
5.428	336
5.432	324
5.436	328
5.44	337
5.444	332
5.448	328
5.452	334
5.456	328
5.46	324
5.464	334
5.468	331
5.472	326
5.476	335
5.48	337
5.484	328
5.488	329
5.492	339
5.496	332
5.5	332
5.504	340
5.508	339
5.512	337
5.516	353
5.52	352
5.524	340
5.528	343
5.532	335
5.536	323
5.54	330
5.544	329
5.548	320
5.552	328
5.556	333
5.56	322
5.564	324
5.568	334
5.572	323
5.576	320
5.58	330
5.584	317
5.588	304
5.592	319
5.596	348
5.6	400
5.604	486
5.608	563
5.612	560
5.616	489
5.62	401
5.624	313
5.628	286
5.632	300
5.636	307
5.64	316
5.644	326
5.648	321
5.652	316
5.656	326
5.66	324
5.664	318
5.668	324
5.672	324
5.676	320
5.68	324
5.684	332
5.688	325
5.692	324
5.696	333
5.7	326
5.704	322
5.708	333
5.712	331
5.716	326
5.72	336
5.724	335
5.728	331
5.732	338
5.736	338
5.74	327
5.744	334
5.748	337
5.752	336
5.756	342
5.76	348
5.764	337
5.768	334
5.772	345
5.776	342
5.78	339
5.784	346
5.788	346
5.792	338
5.796	343
5.8	346
5.804	335
5.808	339
5.812	342
5.816	330
5.82	329
5.824	333
5.828	325
5.832	321
5.836	328
5.84	322
5.844	316
5.848	327
5.852	324
5.856	317
5.86	325
5.864	327
5.868	315
5.872	318
5.876	325
5.88	322
5.884	326
5.888	332
5.892	320
5.896	316
5.9	333
5.904	327
5.908	321
5.912	331
5.916	328
5.92	319
5.924	323
5.928	324
5.932	321
5.936	324
5.94	327
5.944	322
5.948	324
5.952	330
5.956	319
5.96	319
5.964	336
5.968	328
5.972	319
5.976	327
5.98	326
5.984	321
5.988	324
5.992	327
5.996	320
6	324
6.004	327
6.008	318
6.012	318
6.016	328
6.02	322
6.024	317
6.028	332
6.032	327
6.036	320
6.04	327
6.044	323
6.048	317
6.052	322
6.056	326
6.06	319
6.064	324
6.068	328
6.072	315
6.076	317
6.08	326
6.084	322
6.088	325
6.092	331
6.096	322
6.1	316
6.104	331
6.108	330
6.112	319
6.116	326
6.12	327
6.124	319
6.128	324
6.132	329
6.136	322
6.14	322
6.144	331
6.148	323
6.152	320
6.156	333
6.16	329
6.164	326
6.168	337
6.172	336
6.176	330
6.18	336
6.184	337
6.188	332
6.192	346
6.196	353
6.2	339
6.204	335
6.208	330
6.212	319
6.216	321
6.22	327
6.224	319
6.228	317
6.232	324
6.236	321
6.24	315
6.244	319
6.248	321
6.252	309
6.256	307
6.26	307
6.264	304
6.268	344
6.272	411
6.276	478
6.28	542
6.284	543
6.288	460
6.292	363
6.296	296
6.3	280
6.304	284
6.308	305
6.312	314
6.316	306
6.32	312
6.324	316
6.328	313
6.332	316
6.336	326
6.34	315
6.344	312
6.348	326
6.352	323
6.356	317
6.36	328
6.364	326
6.368	319
6.372	330
6.376	331
6.38	316
6.384	322
6.388	332
6.392	326
6.396	332
6.4	336
6.404	326
6.408	327
6.412	337
6.416	334
6.42	332
6.424	347
6.428	344
6.432	333
6.436	342
6.44	348
6.444	342
6.448	348
6.452	349
6.456	336
6.46	338
6.464	355
6.468	353
6.472	346
6.476	350
6.48	346
6.484	337
6.488	343
6.492	335
6.496	325
6.5	331
6.504	330
6.508	318
6.512	324
6.516	332
6.52	324
6.524	322
6.528	328
6.532	324
6.536	322
6.54	328
6.544	327
6.548	324
6.552	329
6.556	326
6.56	321
6.564	329
6.568	331
6.572	324
6.576	330
6.58	333
6.584	322
6.588	324
6.592	333
6.596	326
6.6	324
6.604	337
6.608	335
6.612	328
6.616	334
6.62	332
6.624	325
6.628	334
6.632	333
6.636	328
6.64	333
6.644	337
6.648	323
6.652	324
6.656	337
6.66	330
6.664	329
6.668	334
6.672	331
6.676	325
6.68	335
6.684	332
6.688	326
6.692	334
6.696	336
6.7	327
6.704	333
6.708	338
6.712	326
6.716	330
6.72	342
6.724	332
6.728	332
6.732	341
6.736	337
6.74	332
6.744	337
6.748	335
6.752	331
6.756	337
6.76	335
6.764	327
6.768	334
6.772	343
6.776	330
6.78	331
6.784	344
6.788	345
6.792	342
6.796	346
6.8	342
6.804	341
6.808	355
6.812	355
6.816	349
6.82	352
6.824	348
6.828	332
6.832	332
6.836	337
6.84	328
6.844	329
6.848	335
6.852	327
6.856	323
6.86	333
6.864	330
6.868	325
6.872	332
6.876	327
6.88	309
6.884	315
6.888	340
6.892	385
6.896	460
6.9	533
6.904	536
6.908	477
6.912	403
6.916	315
6.92	280
6.924	299
6.928	311
6.932	319
6.936	328
6.94	325
6.944	318
6.948	325
6.952	329
6.956	320
6.96	324
6.964	326
6.968	316
6.972	318
6.976	337
6.98	335
6.984	328
6.988	338
6.992	333
6.996	326
7	337
7.004	338
7.008	329
7.012	335
7.016	334
7.02	326
7.024	336
7.028	343
7.032	340
7.036	340
7.04	346
7.044	341
7.048	345
7.052	355
7.056	352
7.06	346
7.064	358
7.068	360
7.072	352
7.076	357
7.08	355
7.084	344
7.088	352
7.092	359
7.096	348
7.1	344
7.104	350
7.108	339
7.112	332
7.116	337
7.12	330
7.124	326
7.128	335
7.132	334
7.136	326
7.14	329
7.144	327
7.148	323
7.152	328
7.156	331
7.16	320
7.164	327
7.168	338
7.172	328
7.176	326
7.18	336
7.184	333
7.188	326
7.192	334
7.196	332
7.2	324
7.204	330
7.208	332
7.212	324
7.216	332
7.22	334
7.224	324
7.228	329
7.232	340
7.236	329
7.24	326
7.244	334
7.248	330
7.252	329
7.256	336
7.26	333
7.264	325
7.268	333
7.272	333
7.276	321
7.28	331
7.284	338
7.288	329
7.292	330
7.296	335
7.3	329
7.304	330
7.308	338
7.312	332
7.316	328
7.32	334
7.324	331
7.328	326
7.332	335
7.336	333
7.34	323
7.344	333
7.348	340
7.352	329
7.356	328
7.36	336
7.364	329
7.368	330
7.372	340
7.376	334
7.38	334
7.384	350
7.388	349
7.392	338
7.396	346
7.4	348
7.404	338
7.408	350
7.412	358
7.416	348
7.42	342
7.424	346
7.428	336
7.432	324
7.436	333
7.44	329
7.444	320
7.448	328
7.452	331
7.456	323
7.46	328
7.464	327
7.468	315
7.472	317
7.476	322
7.48	315
7.484	329
7.488	381
7.492	439
7.496	517
7.5	572
7.504	515
7.508	418
7.512	343
7.516	292
7.52	285
7.524	304
7.528	315
7.532	311
7.536	314
7.54	323
7.544	318
7.548	321
7.552	326
7.556	320
7.56	319
7.564	327
7.568	325
7.572	319
7.576	326
7.58	325
7.584	317
7.588	323
7.592	330
7.596	325
7.6	330
7.604	336
7.608	328
7.612	332
7.616	340
7.62	330
7.624	328
7.628	339
7.632	335
7.636	329
7.64	339
7.644	340
7.648	332
7.652	341
7.656	346
7.66	341
7.664	347
7.668	352
7.672	344
7.676	344
7.68	349
7.684	341
7.688	338
7.692	350
7.696	347
7.7	339
7.704	346
7.708	339
7.712	327
7.716	331
7.72	332
7.724	324
7.728	327
7.732	331
7.736	321
7.74	322
7.744	329
7.748	323
7.752	318
7.756	333
7.76	334
7.764	323
7.768	329
7.772	328
7.776	322
7.78	331
7.784	331
7.788	322
7.792	328
7.796	335
7.8	325
7.804	325
7.808	332
7.812	324
7.816	321
7.82	327
7.824	326
7.828	322
7.832	332
7.836	334
7.84	323
7.844	327
7.848	326
7.852	321
7.856	328
7.86	331
7.864	327
7.868	327
7.872	332
7.876	324
7.88	321
7.884	329
7.888	328
7.892	322
7.896	331
7.9	329
7.904	320
7.908	327
7.912	330
7.916	321
7.92	325
7.924	327
7.928	319
7.932	319
7.936	330
7.94	322
7.944	323
7.948	330
7.952	324
7.956	313
7.96	325
7.964	329
7.968	323
7.972	329
7.976	326
7.98	316
7.984	325
7.988	341
7.992	334
7.996	333
8	340
8.004	329
8.008	329
8.012	338
8.016	337
8.02	337
8.024	347
8.028	340
8.032	331
8.036	333
8.04	331
8.044	317
8.048	320
8.052	323
8.056	313
8.06	314
8.064	319
8.068	315
8.072	319
8.076	329
8.08	319
8.084	309
8.088	308
8.092	310
8.096	320
8.1	377
8.104	449
8.108	519
8.112	562
8.116	512
8.12	411
8.124	324
8.128	288
8.132	280
8.136	288
8.14	310
8.144	309
8.148	302
8.152	320
8.156	321
8.16	310
8.164	314
8.168	317
8.172	306
8.176	311
8.18	321
8.184	313
8.188	315
8.192	320
8.196	311
8.2	312
8.204	325
8.208	325
8.212	321
8.216	322
8.22	320
8.224	321
8.228	329
8.232	335
8.236	325
8.24	326
8.244	333
8.248	329
8.252	328
8.256	334
8.26	333
8.264	332
8.268	342
8.272	342
8.276	336
8.28	345
8.284	343
8.288	334
8.292	343
8.296	347
8.3	336
8.304	335
8.308	340
8.312	331
8.316	332
8.32	338
8.324	325
8.328	322
8.332	330
8.336	321
8.34	314
8.344	325
8.348	320
8.352	314
8.356	322
8.36	320
8.364	313
8.368	322
8.372	329
8.376	319
8.38	319
8.384	325
8.388	314
8.392	314
8.396	330
8.4	329
8.404	319
8.408	328
8.412	325
8.416	317
8.42	324
8.424	326
8.428	314
8.432	321
8.436	326
8.44	321
8.444	324
8.448	331
8.452	324
8.456	319
8.46	331
8.464	328
8.468	321
8.472	327
8.476	327
8.48	320
8.484	325
8.488	331
8.492	324
8.496	323
8.5	333
8.504	323
8.508	323
8.512	331
8.516	323
8.52	322
8.524	329
8.528	326
8.532	321
8.536	328
8.54	330
8.544	321
8.548	326
8.552	331
8.556	324
8.56	328
8.564	335
8.568	328
8.572	327
8.576	329
8.58	321
8.584	320
8.588	335
8.592	334
8.596	326
8.6	331
8.604	330
8.608	325
8.612	337
8.616	343
8.62	335
8.624	342
8.628	348
8.632	340
8.636	340
8.64	351
8.644	351
8.648	349
8.652	351
8.656	342
8.66	332
8.664	336
8.668	334
8.672	321
8.676	321
8.68	326
8.684	326
8.688	325
8.692	324
8.696	319
8.7	324
8.704	325
8.708	311
8.712	308
8.716	320
8.72	346
8.724	396
8.728	478
8.732	554
8.736	552
8.74	482
8.744	391
8.748	303
8.752	277
8.756	298
8.76	307
8.764	314
8.768	320
8.772	312
8.776	314
8.78	322
8.784	318
8.788	311
8.792	319
8.796	320
8.8	309
8.804	319
8.808	326
8.812	316
8.816	320
8.82	329
8.824	322
8.828	319
8.832	331
8.836	329
8.84	327
8.844	334
8.848	332
8.852	330
8.856	336
8.86	332
8.864	327
8.868	337
8.872	338
8.876	332
8.88	340
8.884	349
8.888	340
8.892	336
8.896	347
8.9	346
8.904	346
8.908	351
8.912	349
8.916	342
8.92	347
8.924	346
8.928	341
8.932	346
8.936	344
8.94	334
8.944	334
8.948	333
8.952	323
8.956	325
8.96	330
8.964	322
8.968	317
8.972	328
8.976	328
8.98	323
8.984	328
8.988	328
8.992	324
8.996	326
9	329
9.004	323
9.008	327
9.012	331
9.016	323
9.02	325
9.024	331
9.028	326
9.032	323
9.036	331
9.04	330
9.044	324
9.048	329
9.052	328
9.056	321
9.06	332
9.064	334
9.068	325
9.072	329
9.076	330
9.08	322
9.084	326
9.088	335
9.092	327
9.096	322
9.1	328
9.104	330
9.108	328
9.112	332
9.116	331
9.12	322
9.124	325
9.128	330
9.132	323
9.136	325
9.14	332
9.144	325
9.148	330
9.152	339
9.156	327
9.16	321
9.164	330
9.168	335
9.172	330
9.176	335
9.18	330
9.184	324
9.188	332
9.192	330
9.196	326
9.2	330
9.204	336
9.208	331
9.212	330
9.216	334
9.22	327
9.224	323
9.228	330
9.232	330
9.236	329
9.24	334
9.244	333
9.248	328
9.252	335
9.256	340
9.26	333
9.264	338
9.268	348
9.272	345
9.276	347
9.28	352
9.284	347
9.288	343
9.292	342
9.296	333
9.3	325
9.304	327
9.308	323
9.312	318
9.316	325
9.32	326
9.324	318
9.328	320
9.332	328
9.336	318
9.34	317
9.344	315
9.348	305
9.352	313
9.356	350
9.36	400
9.364	469
9.368	548
9.372	555
9.376	477
9.38	390
9.384	310
9.388	274
9.392	287
9.396	307
9.4	308
9.404	312
9.408	319
9.412	313
9.416	313
9.42	319
9.424	311
9.428	309
9.432	324
9.436	323
9.44	316
9.444	323
9.448	328
9.452	321
9.456	322
9.46	330
9.464	323
9.468	320
9.472	329
9.476	326
9.48	328
9.484	336
9.488	329
9.492	322
9.496	329
9.5	333
9.504	326
9.508	334
9.512	341
9.516	335
9.52	338
9.524	346
9.528	337
9.532	335
9.536	341
9.54	339
9.544	340
9.548	349
9.552	347
9.556	340
9.56	343
9.564	341
9.568	331
9.572	335
9.576	339
9.58	331
9.584	328
9.588	328
9.592	320
9.596	326
9.6	331
9.604	321
9.608	321
9.612	326
9.616	323
9.62	320
9.624	329
9.628	328
9.632	322
9.636	326
9.64	326
9.644	320
9.648	325
9.652	329
9.656	324
9.66	327
9.664	333
9.668	324
9.672	321
9.676	326
9.68	321
9.684	318
9.688	328
9.692	329
9.696	319
9.7	325
9.704	328
9.708	322
9.712	326
9.716	330
9.72	322
9.724	326
9.728	335
9.732	328
9.736	323
9.74	327
9.744	323
9.748	320
9.752	330
9.756	329
9.76	327
9.764	332
9.768	331
9.772	320
9.776	328
9.78	337
9.784	327
9.788	324
9.792	330
9.796	328
9.8	325
9.804	332
9.808	330
9.812	323
9.816	330
9.82	329
9.824	322
9.828	332
9.832	335
9.836	324
9.84	325
9.844	333
9.848	328
9.852	326
9.856	331
9.86	324
9.864	324
9.868	333
9.872	329
9.876	329
9.88	334
9.884	336
9.888	331
9.892	339
9.896	343
9.9	334
9.904	339
9.908	348
9.912	345
9.916	345
9.92	351
9.924	346
9.928	339
9.932	345
9.936	339
9.94	328
9.944	331
9.948	333
9.952	322
9.956	328
9.96	331
9.964	322
9.968	323
9.972	332
9.976	324
9.98	321
9.984	317
9.988	306
9.992	312
9.996	352
10	406
10.004	479
10.008	555
10.012	556
10.016	469
10.02	386
10.024	312
10.028	282
10.032	292
10.036	308
10.04	315
10.044	322
10.048	326
10.052	313
10.056	309
10.06	322
10.064	322
10.068	316
10.072	321
10.076	324
10.08	316
10.084	321
10.088	325
10.092	319
10.096	327
10.1	332
10.104	322
10.108	320
10.112	329
10.116	332
10.12	330
10.124	331
10.128	331
10.132	330
10.136	340
10.14	335
10.144	330
10.148	336
10.152	339
10.156	333
10.16	337
10.164	347
10.168	339
10.172	338
10.176	349
10.18	349
10.184	345
10.188	349
10.192	347
10.196	343
10.2	348
10.204	347
10.208	339
10.212	340
10.216	338
10.22	328
10.224	333
10.228	340
10.232	326
10.236	324
10.24	332
10.244	325
10.248	320
10.252	331
10.256	330
10.26	322
10.264	326
10.268	324
10.272	316
10.276	325
10.28	334
10.284	323
10.288	325
10.292	331
10.296	323
10.3	321
10.304	325
10.308	326
10.312	329
10.316	329
10.32	326
10.324	323
10.328	328
10.332	326
10.336	322
10.34	327
10.344	329
10.348	319
10.352	324
10.356	335
10.36	326
10.364	322
10.368	329
10.372	328
10.376	325
10.38	333
10.384	327
10.388	320
10.392	327
10.396	325
10.4	320
10.404	326
10.408	329
10.412	320
10.416	324
10.42	332
10.424	323
10.428	322
10.432	333
10.436	332
10.44	326
10.444	329
10.448	323
10.452	321
10.456	331
10.46	331
10.464	320
10.468	322
10.472	328
10.476	320
10.48	325
10.484	333
10.488	327
10.492	325
10.496	327
10.5	322
10.504	323
10.508	332
10.512	329
10.516	324
10.52	333
10.524	336
10.528	335
10.532	344
10.536	344
10.54	336
10.544	338
10.548	342
10.552	339
10.556	342
10.56	348
10.564	337
10.568	324
10.572	328
10.576	324
10.58	314
10.584	314
10.588	321
10.592	316
10.596	319
10.6	321
10.604	313
10.608	314
10.612	316
10.616	301
10.62	304
10.624	320
10.628	358
10.632	424
10.636	514
10.64	560
10.644	513
10.648	430
10.652	342
10.656	275
10.66	276
10.664	301
10.668	302
10.672	305
10.676	314
10.68	312
10.684	315
10.688	322
10.692	313
10.696	310
10.7	322
10.704	321
10.708	316
10.712	322
10.716	321
10.72	316
10.724	322
10.728	325
10.732	315
10.736	319
10.74	329
10.744	325
10.748	329
10.752	337
10.756	329
10.76	326
10.764	336
10.768	333
10.772	328
10.776	333
10.78	333
10.784	330
10.788	337
10.792	342
10.796	340
10.8	345
10.804	348
10.808	344
10.812	346
10.816	352
10.82	344
10.824	342
10.828	347
10.832	343
10.836	340
10.84	344
10.844	341
10.848	331
10.852	333
10.856	335
10.86	321
10.864	325
10.868	330
10.872	318
10.876	322
10.88	326
10.884	319
10.888	318
10.892	324
10.896	324
10.9	316
10.904	321
10.908	322
10.912	320
10.916	323
10.92	323
10.924	319
10.928	321
10.932	326
10.936	322
10.94	319
10.944	323
10.948	321
10.952	320
10.956	325
10.96	322
10.964	316
10.968	324
10.972	327
10.976	320
10.98	324
10.984	324
10.988	319
10.992	322
10.996	329
11	320
11.004	322
11.008	329
11.012	322
11.016	324
11.02	331
11.024	326
11.028	321
11.032	329
11.036	330
11.04	320
11.044	325
11.048	330
11.052	321
11.056	322
11.06	331
11.064	326
11.068	327
11.072	335
11.076	330
11.08	326
11.084	331
11.088	329
11.092	326
11.096	333
11.1	329
11.104	323
11.108	328
11.112	331
11.116	326
11.12	337
11.124	342
11.128	334
11.132	339
11.136	347
11.14	345
11.144	339
11.148	346
11.152	346
11.156	339
11.16	346
11.164	345
11.168	330
11.172	327
11.176	326
11.18	317
11.184	325
11.188	330
11.192	317
11.196	314
11.2	318
11.204	319
11.208	318
11.212	323
11.216	314
11.22	305
11.224	319
11.228	352
11.232	400
11.236	481
11.24	543
11.244	521
11.248	452
11.252	364
11.256	284
11.26	277
11.264	301
11.268	309
11.272	307
11.276	315
11.28	313
11.284	311
11.288	324
11.292	328
11.296	322
11.3	331
11.304	335
11.308	323
11.312	322
11.316	332
11.32	329
11.324	327
11.328	329
11.332	324
11.336	325
11.34	341
11.344	339
11.348	330
11.352	336
11.356	340
11.36	337
11.364	342
11.368	344
11.372	337
11.376	345
11.38	347
11.384	341
11.388	348
11.392	356
11.396	346
11.4	345
11.404	355
11.408	354
11.412	347
11.416	359
11.42	359
11.424	346
11.428	347
11.432	354
11.436	347
11.44	347
11.444	346
11.448	336
11.452	333
11.456	337
11.46	324
11.464	316
11.468	323
11.472	318
11.476	315
11.48	330
11.484	336
11.488	327
11.492	328
11.496	329
11.5	323
11.504	328
11.508	333
11.512	325
11.516	327
11.52	332
11.524	325
11.528	326
11.532	336
11.536	331
11.54	321
11.544	329
11.548	332
11.552	327
11.556	336
11.56	335
11.564	324
11.568	329
11.572	335
11.576	332
11.58	331
11.584	334
11.588	329
11.592	327
11.596	339
11.6	330
11.604	320
11.608	329
11.612	329
11.616	324
11.62	332
11.624	337
11.628	329
11.632	328
11.636	336
11.64	330
11.644	332
11.648	337
11.652	333
11.656	333
11.66	337
11.664	334
11.668	328
11.672	336
11.676	339
11.68	337
11.684	339
11.688	341
11.692	338
11.696	341
11.7	346
11.704	346
11.708	352
11.712	362
11.716	352
11.72	340
11.724	339
11.728	333
11.732	330
11.736	334
11.74	331
11.744	319
11.748	322
11.752	330
11.756	329
11.76	327
11.764	331
11.768	326
11.772	325
11.776	327
11.78	310
11.784	304
11.788	326
11.792	368
11.796	427
11.8	507
11.804	543
11.808	488
11.812	414
11.816	342
11.82	292
11.824	289
11.828	306
11.832	311
11.836	319
11.84	328
11.844	320
11.848	316
11.852	327
11.856	325
11.86	324
11.864	333
11.868	331
11.872	320
11.876	325
11.88	331
11.884	325
11.888	328
11.892	334
11.896	327
11.9	332
11.904	337
11.908	331
11.912	332
11.916	341
11.92	339
11.924	336
11.928	345
11.932	341
11.936	332
11.94	344
11.944	349
11.948	344
11.952	352
11.956	356
11.96	344
11.964	343
11.968	354
11.972	353
11.976	348
11.98	354
11.984	355
11.988	346
11.992	350
11.996	349
12	341
12.004	343
12.008	342
12.012	331
12.016	327
12.02	330
12.024	321
12.028	323
12.032	331
12.036	319
12.04	315
12.044	333
12.048	327
12.052	318
12.056	325
12.06	325
12.064	320
12.068	329
12.072	333
12.076	320
12.08	320
12.084	327
12.088	323
12.092	323
12.096	327
12.1	322
12.104	320
12.108	334
12.112	331
12.116	322
12.12	331
12.124	333
12.128	322
12.132	329
12.136	331
12.14	324
12.144	329
12.148	337
12.152	326
12.156	327
12.16	336
12.164	329
12.168	321
12.172	326
12.176	327
12.18	324
12.184	332
12.188	330
12.192	322
12.196	327
12.2	331
12.204	326
12.208	330
12.212	333
12.216	326
12.22	328
12.224	339
12.228	338
12.232	338
12.236	346
12.24	341
12.244	335
12.248	347
12.252	350
12.256	335
12.26	337
12.264	334
12.268	325
12.272	327
12.276	334
12.28	328
12.284	325
12.288	330
12.292	320
12.296	318
12.3	328
12.304	329
12.308	321
12.312	327
12.316	320
12.32	306
12.324	314
12.328	338
12.332	386
12.336	461
12.34	542
12.344	548
12.348	479
12.352	399
12.356	312
12.36	277
12.364	294
12.368	307
12.372	309
12.376	320
12.38	319
12.384	312
12.388	320
12.392	319
12.396	310
12.4	317
12.404	325
12.408	318
12.412	319
12.416	326
12.42	321
12.424	322
12.428	328
12.432	328
12.436	318
12.44	327
12.444	341
12.448	328
12.452	329
12.456	334
12.46	328
12.464	334
12.468	344
12.472	335
12.476	330
12.48	336
12.484	336
12.488	337
12.492	348
12.496	346
12.5	342
12.504	350
12.508	353
12.512	349
12.516	351
12.52	351
12.524	343
12.528	346
12.532	351
12.536	343
12.54	339
12.544	343
12.548	335
12.552	326
12.556	335
12.56	330
12.564	323
12.568	329
12.572	332
12.576	324
12.58	323
12.584	328
12.588	323
12.592	325
12.596	330
12.6	320
12.604	320
12.608	330
12.612	330
12.616	320
12.62	323
12.624	323
12.628	320
12.632	325
12.636	324
12.64	316
12.644	328
12.648	335
12.652	325
12.656	323
12.66	328
12.664	324
12.668	323
12.672	330
12.676	323
12.68	320
12.684	329
12.688	322
12.692	316
12.696	326
12.7	330
12.704	327
12.708	331
12.712	331
12.716	322
12.72	326
12.724	333
12.728	323
12.732	321
12.736	328
12.74	326
12.744	321
12.748	326
12.752	328
12.756	325
12.76	333
12.764	332
12.768	326
12.772	337
12.776	343
12.78	331
12.784	334
12.788	347
12.792	338
12.796	337
12.8	346
12.804	343
12.808	332
12.812	331
12.816	324
12.82	319
12.824	326
12.828	326
12.832	319
12.836	324
12.84	328
12.844	318
12.848	321
12.852	330
12.856	324
12.86	321
12.864	320
12.868	304
12.872	303
12.876	329
12.88	375
12.884	437
12.888	525
12.892	575
12.896	521
12.9	429
12.904	341
12.908	280
12.912	283
12.916	304
12.92	308
12.924	311
12.928	319
12.932	313
12.936	309
12.94	320
12.944	313
12.948	307
12.952	320
12.956	327
12.96	319
12.964	320
12.968	322
12.972	318
12.976	321
12.98	325
12.984	318
12.988	317
12.992	325
12.996	324
13	322
13.004	328
13.008	330
13.012	324
13.016	327
13.02	331
13.024	326
13.028	335
13.032	340
13.036	331
13.04	339
13.044	348
13.048	336
13.052	333
13.056	342
13.06	339
13.064	338
13.068	347
13.072	344
13.076	335
13.08	342
13.084	342
13.088	337
13.092	338
13.096	336
13.1	327
13.104	329
13.108	330
13.112	317
13.116	316
13.12	322
13.124	317
13.128	313
13.132	326
13.136	323
13.14	311
13.144	321
13.148	325
13.152	322
13.156	325
13.16	322
13.164	312
13.168	318
13.172	327
13.176	321
13.18	321
13.184	328
13.188	319
13.192	315
13.196	326
13.2	326
13.204	320
13.208	327
13.212	326
13.216	318
13.22	327
13.224	328
13.228	318
13.232	324
13.236	328
13.24	323
13.244	325
13.248	331
13.252	327
13.256	323
13.26	330
13.264	330
13.268	324
13.272	326
13.276	331
13.28	325
13.284	328
13.288	330
13.292	320
13.296	320
13.3	326
13.304	323
13.308	327
13.312	330
13.316	327
13.32	324
13.324	331
13.328	330
13.332	325
13.336	333
13.34	330
13.344	322
13.348	326
13.352	328
13.356	319
13.36	330
13.364	339
13.368	331
13.372	326
13.376	333
13.38	332
13.384	327
13.388	334
13.392	334
13.396	329
13.4	333
13.404	331
13.408	324
13.412	330
13.416	335
13.42	332
13.424	336
13.428	343
13.432	342
13.436	342
13.44	348
13.444	344
13.448	337
13.452	339
13.456	333
13.46	325
13.464	330
13.468	331
13.472	323
13.476	321
13.48	328
13.484	324
13.488	326
13.492	326
13.496	320
13.5	323
13.504	332
13.508	316
13.512	302
13.516	315
13.52	335
13.524	381
13.528	456
13.532	534
13.536	569
13.54	520
13.544	430
13.548	335
13.552	292
13.556	295
13.56	302
13.564	313
13.568	319
13.572	312
13.576	310
13.58	322
13.584	317
13.588	309
13.592	317
13.596	324
13.6	318
13.604	322
13.608	325
13.612	315
13.616	320
13.62	329
13.624	324
13.628	321
13.632	327
13.636	323
13.64	321
13.644	327
13.648	326
13.652	322
13.656	328
13.66	331
13.664	323
13.668	331
13.672	333
13.676	328
13.68	332
13.684	337
13.688	330
13.692	331
13.696	342
13.7	340
13.704	335
13.708	344
13.712	345
13.716	336
13.72	344
13.724	344
13.728	336
13.732	339
13.736	340
13.74	330
13.744	330
13.748	331
13.752	323
13.756	320
13.76	322
13.764	319
13.768	320
13.772	323
13.776	321
13.78	319
13.784	326
13.788	327
13.792	317
13.796	318
13.8	324
13.804	314
13.808	317
13.812	327
13.816	321
13.82	320
13.824	323
13.828	320
13.832	321
13.836	330
13.84	326
13.844	322
13.848	328
13.852	326
13.856	318
13.86	320
13.864	326
13.868	319
13.872	323
13.876	328
13.88	320
13.884	320
13.888	327
13.892	323
13.896	319
13.9	331
13.904	329
13.908	320
13.912	328
13.916	332
13.92	321
13.924	327
13.928	334
13.932	326
13.936	324
13.94	329
13.944	322
13.948	316
13.952	327
13.956	328
13.96	326
13.964	331
13.968	325
13.972	317
13.976	327
13.98	330
13.984	323
13.988	326
13.992	331
13.996	323
14	324
14.004	333
14.008	330
14.012	326
14.016	335
14.02	331
14.024	323
14.028	329
14.032	325
14.036	320
14.04	326
14.044	330
14.048	323
14.052	325
14.056	328
14.06	322
14.064	326
14.068	334
14.072	330
14.076	328
14.08	334
14.084	331
14.088	330
14.092	339
14.096	333
14.1	324
14.104	332
14.108	334
14.112	326
14.116	330
14.12	336
14.124	331
14.128	332
14.132	335
14.136	333
14.14	341
14.144	344
14.148	338
14.152	335
14.156	350
14.16	354
14.164	347
14.168	346
14.172	343
14.176	333
14.18	333
14.184	335
14.188	324
14.192	322
14.196	330
14.2	331
14.204	327
14.208	334
14.212	325
14.216	322
14.22	337
14.224	332
14.228	322
14.232	320
14.236	312
14.24	310
14.244	339
14.248	399
14.252	472
14.256	554
14.26	581
14.264	507
14.268	414
14.272	333
14.276	294
14.28	297
14.284	318
14.288	321
14.292	313
14.296	321
14.3	324
14.304	314
14.308	318
14.312	324
14.316	319
14.32	319
14.324	324
14.328	315
14.332	313
14.336	327
14.34	321
14.344	320
14.348	335
14.352	328
14.356	320
14.36	330
14.364	332
14.368	323
14.372	331
14.376	332
14.38	325
14.384	329
14.388	334
14.392	329
14.396	332
14.4	340
14.404	334
14.408	333
14.412	346
14.416	343
14.42	337
14.424	346
14.428	351
14.432	345
14.436	346
14.44	347
14.444	339
14.448	345
14.452	350
14.456	342
14.46	341
14.464	346
14.468	335
14.472	330
14.476	335
14.48	330
14.484	324
14.488	331
14.492	330
14.496	320
14.5	323
14.504	326
14.508	318
14.512	318
14.516	325
14.52	324
14.524	324
14.528	326
14.532	325
14.536	324
14.54	328
14.544	324
14.548	317
14.552	325
14.556	329
14.56	321
14.564	325
14.568	330
14.572	321
14.576	323
14.58	328
14.584	322
14.588	323
14.592	325
14.596	318
14.6	321
14.604	334
14.608	327
14.612	320
14.616	330
14.62	331
14.624	319
14.628	324
14.632	335
14.636	330
14.64	330
14.644	332
14.648	326
14.652	325
14.656	335
14.66	326
14.664	322
14.668	338
14.672	338
14.676	329
14.68	329
14.684	330
14.688	325
14.692	331
14.696	334
14.7	326
14.704	330
14.708	331
14.712	324
14.716	326
14.72	331
14.724	326
14.728	326
14.732	339
14.736	335
14.74	325
14.744	333
14.748	336
14.752	325
14.756	330
14.76	335
14.764	326
14.768	324
14.772	330
14.776	326
14.78	329
14.784	335
14.788	329
14.792	321
14.796	334
14.8	332
14.804	324
14.808	332
14.812	332
14.816	325
14.82	331
14.824	330
14.828	321
14.832	322
14.836	336
14.84	336
14.844	338
14.848	344
14.852	338
14.856	335
14.86	342
14.864	339
14.868	340
14.872	348
14.876	348
14.88	338
14.884	345
14.888	351
14.892	338
14.896	334
14.9	332
14.904	325
14.908	334
14.912	340
14.916	328
14.92	321
14.924	326
14.928	326
14.932	317
14.936	325
14.94	328
14.944	318
14.948	314
14.952	315
14.956	315
14.96	344
14.964	414
14.968	488
14.972	560
14.976	574
14.98	488
14.984	385
14.988	318
14.992	290
14.996	295
15	314
15.004	318
15.008	317
15.012	321
15.016	323
15.02	317
15.024	319
15.028	320
15.032	314
15.036	318
15.04	328
15.044	317
15.048	312
15.052	323
15.056	330
15.06	328
15.064	332
15.068	329
15.072	320
15.076	328
15.08	334
15.084	326
15.088	328
15.092	337
15.096	331
15.1	329
15.104	336
15.108	332
15.112	331
15.116	339
15.12	339
15.124	338
15.128	350
15.132	349
15.136	340
15.14	346
15.144	352
15.148	345
15.152	346
15.156	357
15.16	352
15.164	346
15.168	354
15.172	350
15.176	340
15.18	344
15.184	343
15.188	335
15.192	338
15.196	332
15.2	322
15.204	326
15.208	327
15.212	322
15.216	324
15.22	330
15.224	328
15.228	329
15.232	331
15.236	325
15.24	326
15.244	332
15.248	332
15.252	326
15.256	329
15.26	329
15.264	323
15.268	327
15.272	333
15.276	328
15.28	329
15.284	331
15.288	326
15.292	327
15.296	334
15.3	328
15.304	326
15.308	334
15.312	327
15.316	322
15.32	328
15.324	328
15.328	320
15.332	327
15.336	334
15.34	329
15.344	331
15.348	336
15.352	326
15.356	324
15.36	330
15.364	324
15.368	324
15.372	332
15.376	332
15.38	324
15.384	330
15.388	331
15.392	323
15.396	328
15.4	336
15.404	332
15.408	332
15.412	334
15.416	324
15.42	325
15.424	334
15.428	328
15.432	324
15.436	327
15.44	330
15.444	326
15.448	331
15.452	329
15.456	324
15.46	329
15.464	331
15.468	327
15.472	331
15.476	338
15.48	330
15.484	327
15.488	331
15.492	328
15.496	326
15.5	329
15.504	327
15.508	326
15.512	336
15.516	335
15.52	328
15.524	335
15.528	336
15.532	325
15.536	325
15.54	333
15.544	328
15.548	327
15.552	333
15.556	326
15.56	323
15.564	331
15.568	330
15.572	328
15.576	335
15.58	337
15.584	333
15.588	339
15.592	345
15.596	342
15.6	347
15.604	351
15.608	340
15.612	337
15.616	343
15.62	330
15.624	319
15.628	324
15.632	326
15.636	325
15.64	329
15.644	326
15.648	318
15.652	320
15.656	324
15.66	322
15.664	323
15.668	318
15.672	302
15.676	308
15.68	343
15.684	390
15.688	458
15.692	543
15.696	572
15.7	504
15.704	412
15.708	324
15.712	278
15.716	291
15.72	310
15.724	310
15.728	316
15.732	322
15.736	315
15.74	314
15.744	320
15.748	316
15.752	317
15.756	326
15.76	324
15.764	316
15.768	322
15.772	322
15.776	318
15.78	328
15.784	330
15.788	319
15.792	324
15.796	331
15.8	321
15.804	325
15.808	335
15.812	333
15.816	332
15.82	340
15.824	334
15.828	326
15.832	337
15.836	339
15.84	333
15.844	337
15.848	344
15.852	339
15.856	338
15.86	347
15.864	347
15.868	348
15.872	353
15.876	352
15.88	346
15.884	351
15.888	347
15.892	339
15.896	345
15.9	343
15.904	331
15.908	334
15.912	332
15.916	320
15.92	321
15.924	329
15.928	322
15.932	321
15.936	330
15.94	328
15.944	319
15.948	326
15.952	327
15.956	320
15.96	326
15.964	323
15.968	321
15.972	323
15.976	324
15.98	317
15.984	322
15.988	331
15.992	322
15.996	318
16	325
16.004	326
16.008	319
16.012	327
16.016	327
16.02	324
16.024	327
16.028	326
16.032	315
16.036	321
16.04	329
16.044	321
16.048	319
16.052	325
16.056	323
16.06	321
16.064	325
16.068	322
16.072	317
16.076	326
16.08	327
16.084	322
16.088	327
16.092	327
16.096	320
16.1	324
16.104	326
16.108	319
16.112	321
16.116	328
16.12	323
16.124	322
16.128	328
16.132	324
16.136	321
16.14	325
16.144	321
16.148	314
16.152	324
16.156	326
16.16	319
16.164	321
16.168	330
16.172	325
16.176	322
16.18	323
16.184	322
16.188	326
16.192	334
16.196	320
16.2	316
16.204	332
16.208	329
16.212	319
16.216	327
16.22	329
16.224	319
16.228	323
16.232	327
16.236	319
16.24	322
16.244	332
16.248	327
16.252	324
16.256	328
16.26	323
16.264	321
16.268	335
16.272	332
16.276	330
16.28	338
16.284	339
16.288	331
16.292	336
16.296	343
16.3	341
16.304	346
16.308	352
16.312	339
16.316	335
16.32	340
16.324	328
16.328	316
16.332	323
16.336	325
16.34	319
16.344	324
16.348	327
16.352	317
16.356	320
16.36	326
16.364	319
16.368	309
16.372	306
16.376	303
16.38	329
16.384	393
16.388	465
16.392	540
16.396	558
16.4	486
16.404	389
16.408	316
16.412	285
16.416	282
16.42	298
16.424	311
16.428	311
16.432	316
16.436	321
16.44	314
16.444	316
16.448	326
16.452	320
16.456	317
16.46	323
16.464	324
16.468	319
16.472	325
16.476	325
16.48	317
16.484	325
16.488	330
16.492	325
16.496	330
16.5	335
16.504	320
16.508	319
16.512	338
16.516	338
16.52	332
16.524	338
16.528	332
16.532	328
16.536	340
16.54	344
16.544	336
16.548	344
16.552	351
16.556	341
16.56	345
16.564	353
16.568	347
16.572	344
16.576	353
16.58	350
16.584	346
16.588	351
16.592	345
16.596	339
16.6	341
16.604	338
16.608	329
16.612	333
16.616	334
16.62	325
16.624	320
16.628	328
16.632	321
16.636	321
16.64	327
16.644	318
16.648	316
16.652	329
16.656	329
16.66	319
16.664	327
16.668	329
16.672	321
16.676	324
16.68	331
16.684	327
16.688	325
16.692	328
16.696	318
16.7	321
16.704	333
16.708	330
16.712	321
16.716	326
16.72	326
16.724	323
16.728	332
16.732	329
16.736	321
16.74	326
16.744	333
16.748	324
16.752	322
16.756	332
16.76	328
16.764	327
16.768	336
16.772	330
16.776	324
16.78	331
16.784	326
16.788	318
16.792	329
16.796	329
16.8	321
16.804	326
16.808	326
16.812	325
16.816	332
16.82	335
16.824	324
16.828	325
16.832	333
16.836	331
16.84	328
16.844	336
16.848	331
16.852	320
16.856	329
16.86	333
16.864	326
16.868	332
16.872	336
16.876	332
16.88	334
16.884	337
16.888	332
16.892	332
16.896	336
16.9	330
16.904	329
16.908	339
16.912	334
16.916	323
16.92	329
16.924	339
16.928	340
16.932	342
16.936	344
16.94	341
16.944	344
16.948	349
16.952	346
16.956	344
16.96	352
16.964	344
16.968	335
16.972	338
16.976	331
16.98	324
16.984	329
16.988	330
16.992	320
16.996	325
17	328
17.004	320
17.008	326
17.012	333
17.016	320
17.02	308
17.024	309
17.028	311
17.032	329
17.036	388
17.04	461
17.044	522
17.048	533
17.052	477
17.056	391
17.06	319
17.064	289
17.068	286
17.072	304
17.076	317
17.08	319
17.084	321
17.088	329
17.092	323
17.096	317
17.1	327
17.104	326
17.108	322
17.112	330
17.116	331
17.12	321
17.124	327
17.128	331
17.132	322
17.136	327
17.14	334
17.144	324
17.148	325
17.152	331
17.156	330
17.16	333
17.164	341
17.168	340
17.172	332
17.176	339
17.18	340
17.184	331
17.188	335
17.192	345
17.196	342
17.2	345
17.204	352
17.208	345
17.212	345
17.216	349
17.22	350
17.224	352
17.228	357
17.232	348
17.236	341
17.24	351
17.244	357
17.248	344
17.252	343
17.256	341
17.26	332
17.264	333
17.268	334
17.272	328
17.276	324
17.28	327
17.284	321
17.288	319
17.292	328
17.296	323
17.3	317
17.304	330
17.308	329
17.312	321
17.316	326
17.32	327
17.324	325
17.328	330
17.332	332
17.336	321
17.34	323
17.344	335
17.348	329
17.352	321
17.356	326
17.36	327
17.364	324
17.368	334
17.372	333
17.376	322
17.38	331
17.384	334
17.388	328
17.392	331
17.396	331
17.4	325
17.404	328
17.408	335
17.412	330
17.416	321
17.42	324
17.424	326
17.428	330
17.432	336
17.436	333
17.44	320
17.444	326
17.448	332
17.452	320
17.456	326
17.46	339
17.464	333
17.468	328
17.472	336
17.476	327
17.48	321
17.484	338
17.488	339
17.492	333
17.496	330
17.5	330
17.504	325
17.508	333
17.512	340
17.516	333
17.52	334
17.524	337
17.528	332
17.532	334
17.536	342
17.54	337
17.544	337
17.548	347
17.552	348
17.556	344
17.56	347
17.564	344
17.568	344
17.572	352
17.576	353
17.58	332
17.584	328
17.588	335
17.592	329
17.596	329
17.6	336
17.604	331
17.608	325
17.612	332
17.616	328
17.62	318
17.624	316
17.628	311
17.632	304
17.636	334
17.64	399
17.644	461
17.648	523
17.652	534
17.656	467
17.66	384
17.664	316
17.668	284
17.672	292
17.676	315
17.68	322
17.684	316
17.688	325
17.692	327
17.696	320
17.7	324
17.704	331
17.708	322
17.712	321
17.716	329
17.72	326
17.724	325
17.728	336
17.732	332
17.736	323
17.74	332
17.744	337
17.748	334
17.752	339
17.756	335
17.76	327
17.764	337
17.768	343
17.772	334
17.776	337
17.78	352
17.784	345
17.788	341
17.792	349
17.796	343
17.8	342
17.804	350
17.808	350
17.812	343
17.816	352
17.82	357
17.824	349
17.828	353
17.832	357
17.836	352
17.84	358
17.844	357
17.848	346
17.852	343
17.856	348
17.86	336
17.864	328
17.868	337
17.872	334
17.876	330
17.88	334
17.884	331
17.888	321
17.892	323
17.896	328
17.9	324
17.904	328
17.908	333
17.912	325
17.916	324
17.92	333
17.924	327
17.928	322
17.932	332
17.936	329
17.94	326
17.944	336
17.948	336
17.952	324
17.956	327
17.96	337
17.964	331
17.968	333
17.972	337
17.976	327
17.98	324
17.984	331
17.988	326
17.992	322
17.996	332
18	331
18.004	322
18.008	331
18.012	331
18.016	326
18.02	331
18.024	332
18.028	325
18.032	331
18.036	336
18.04	326
18.044	325
18.048	333
18.052	329
18.056	323
18.06	334
18.064	331
18.068	326
18.072	334
18.076	335
18.08	330
18.084	335
18.088	335
18.092	331
18.096	335
18.1	338
18.104	330
18.108	332
18.112	342
18.116	334
18.12	327
18.124	335
18.128	335
18.132	333
18.136	344
18.14	345
18.144	342
18.148	345
18.152	348
18.156	345
18.16	347
18.164	347
18.168	338
18.172	335
18.176	337
18.18	326
18.184	326
18.188	335
18.192	331
18.196	323
18.2	326
18.204	330
18.208	324
18.212	329
18.216	332
18.22	320
18.224	310
18.228	309
18.232	309
18.236	335
18.24	394
18.244	466
18.248	534
18.252	551
18.256	477
18.26	384
18.264	314
18.268	285
18.272	282
18.276	304
18.28	322
18.284	310
18.288	309
18.292	322
18.296	316
18.3	313
18.304	320
18.308	316
18.312	314
18.316	326
18.32	323
18.324	317
18.328	319
18.332	321
18.336	317
18.34	324
18.344	325
18.348	316
18.352	322
18.356	331
18.36	324
18.364	323
18.368	329
18.372	331
18.376	331
18.38	333
18.384	326
18.388	324
18.392	336
18.396	337
18.4	332
18.404	343
18.408	349
18.412	342
18.416	343
18.42	350
18.424	347
18.428	346
18.432	352
18.436	344
18.44	340
18.444	348
18.448	349
18.452	341
18.456	342
18.46	337
18.464	325
18.468	327
18.472	331
18.476	324
18.48	326
18.484	329
18.488	323
18.492	320
18.496	325
18.5	318
18.504	315
18.508	328
18.512	327
18.516	319
18.52	327
18.524	331
18.528	325
18.532	324
18.536	323
18.54	319
18.544	324
18.548	331
18.552	323
18.556	320
18.56	330
18.564	327
18.568	321
18.572	330
18.576	329
18.58	321
18.584	328
18.588	330
18.592	324
18.596	330
18.6	331
18.604	320
18.608	324
18.612	336
18.616	331
18.62	331
18.624	338
18.628	329
18.632	320
18.636	331
18.64	333
18.644	328
18.648	329
18.652	329
18.656	323
18.66	325
18.664	328
18.668	328
18.672	332
18.676	333
18.68	322
18.684	325
18.688	333
18.692	327
18.696	323
18.7	334
18.704	329
18.708	319
18.712	327
18.716	332
18.72	326
18.724	330
18.728	335
18.732	331
18.736	332
18.74	336
18.744	332
18.748	334
18.752	350
18.756	345
18.76	341
18.764	348
18.768	342
18.772	332
18.776	334
18.78	331
18.784	320
18.788	327
18.792	328
18.796	315
18.8	320
18.804	327
18.808	323
18.812	327
18.816	329
18.82	317
18.824	306
18.828	309
18.832	312
18.836	329
18.84	393
18.844	464
18.848	529
18.852	562
18.856	512
18.86	413
18.864	326
18.868	288
18.872	285
18.876	299
18.88	314
18.884	308
18.888	309
18.892	316
18.896	312
18.9	311
18.904	317
18.908	313
18.912	306
18.916	319
18.92	323
18.924	315
18.928	320
18.932	325
18.936	314
18.94	313
18.944	320
18.948	318
18.952	321
18.956	336
18.96	329
18.964	321
18.968	323
18.972	323
18.976	320
18.98	327
18.984	337
18.988	331
18.992	330
18.996	334
19	330
19.004	326
19.008	329
19.012	336
19.016	343
19.02	349
19.024	344
19.028	336
19.032	344
19.036	343
19.04	333
19.044	341
19.048	344
19.052	329
19.056	327
19.06	339
19.064	327
19.068	321
19.072	331
19.076	322
19.08	306
19.084	320
19.088	339
19.092	323
19.096	318
19.1	313
19.104	307
19.108	326
19.112	338
19.116	321
19.12	310
19.124	299
19.128	287
19.132	296
19.136	310
19.14	303
19.144	276
19.148	274
19.152	264
19.156	239
19.16	224
19.164	194
19.168	152
19.172	120
19.176	94
19.18	72
19.184	36
19.188	0
19.192	0
19.196	0
19.2	0
19.204	0
19.208	0
19.212	0
19.216	0
19.22	0
19.224	0
19.228	0
19.232	0
19.236	0
19.24	0
19.244	0
19.248	0
19.252	0
19.256	0
19.26	0
19.264	0
19.268	0
19.272	0
19.276	0
19.28	0
19.284	0
19.288	0
19.292	0
19.296	0
19.3	0
19.304	0
19.308	0
19.312	0
19.316	0
19.32	0
19.324	0
19.328	0
19.332	0
19.336	0
19.34	34
19.344	191
19.348	315
19.352	354
19.356	375
19.36	398
19.364	445
19.368	485
19.372	490
19.376	513
19.38	574
19.384	597
19.388	592
19.392	592
19.396	610
19.4	643
19.404	645
19.408	639
19.412	628
19.416	638
19.42	645
19.424	643
19.428	646
19.432	648
19.436	648
19.44	649
19.444	649
19.448	649
19.452	650
19.456	650
19.46	650
19.464	650
19.468	650
19.472	650
19.476	650
19.48	649
19.484	649
19.488	649
19.492	649
19.496	649
19.5	649
19.504	648
19.508	648
19.512	649
19.516	650
19.52	651
19.524	651
19.528	651
19.532	651
19.536	651
19.54	651
19.544	650
19.548	650
19.552	648
19.556	637
19.56	595
19.564	545
19.568	516
19.572	507
19.576	494
19.58	488
19.584	490
19.588	489
19.592	460
19.596	445
19.6	438
19.604	406
19.608	402
19.612	411
19.616	401
19.62	397
19.624	399
19.628	396
19.632	386
19.636	403
19.64	391
19.644	369
19.648	381
19.652	380
19.656	372
19.66	368
19.664	350
19.668	342
19.672	356
19.676	363
19.68	350
19.684	336
19.688	342
19.692	336
19.696	339
19.7	351
19.704	348
19.708	345
19.712	352
19.716	334
19.72	342
19.724	399
19.728	372
19.732	349
19.736	343
19.74	336
19.744	330
19.748	335
19.752	340
19.756	324
19.76	331
19.764	333
19.768	329
19.772	335
19.776	327
19.78	340
19.784	329
19.788	315
19.792	324
19.796	313
19.8	309
19.804	313
19.808	297
19.812	305
19.816	316
19.82	290
19.824	280
19.828	291
19.832	283
19.836	272
19.84	279
19.844	290
19.848	296
19.852	291
19.856	280
19.86	295
19.864	299
19.868	300
19.872	282
19.876	266
19.88	263
19.884	275
19.888	281
19.892	276
19.896	261
19.9	250
19.904	257
19.908	261
19.912	272
19.916	280
19.92	272
19.924	244
19.928	247
19.932	246
19.936	227
19.94	213
19.944	204
19.948	166
19.952	188
19.956	255
19.96	294
19.964	307
19.968	293
19.972	269
19.976	272
19.98	288
19.984	320
19.988	332
19.992	344
19.996	345
20	329
20.004	300
20.008	268
20.012	246
20.016	269
20.02	305
20.024	308
20.028	317
20.032	314
20.036	286
20.04	304
20.044	347
20.048	333
20.052	324
20.056	340
20.06	329
20.064	312
20.068	304
20.072	306
20.076	296
20.08	303
20.084	308
20.088	299
20.092	304
20.096	322
20.1	320
20.104	314
20.108	292
20.112	289
20.116	308
20.12	332
20.124	318
20.128	334
20.132	368
20.136	416
20.14	483
20.144	567
20.148	598
20.152	537
20.156	421
20.16	307
20.164	258
20.168	274
20.172	302
20.176	305
20.18	303
20.184	299
20.188	294
20.192	279
20.196	287
20.2	283
20.204	265
20.208	259
20.212	281
20.216	290
20.22	278
20.224	282
20.228	282
20.232	283
20.236	286
20.24	280
20.244	277
20.248	291
20.252	286
20.256	278
20.26	284
20.264	299
20.268	316
20.272	307
20.276	306
20.28	291
20.284	309
20.288	326
20.292	324
20.296	314
20.3	316
20.304	318
20.308	321
20.312	318
20.316	313
20.32	309
20.324	314
20.328	310
20.332	316
20.336	322
20.34	324
20.344	311
20.348	312
20.352	325
20.356	329
20.36	317
20.364	310
20.368	300
20.372	293
20.376	291
20.38	288
20.384	284
20.388	292
20.392	299
20.396	286
20.4	291
20.404	305
20.408	294
20.412	288
20.416	296
20.42	292
20.424	289
20.428	291
20.432	302
20.436	312
20.44	318
20.444	304
20.448	274
20.452	284
20.456	295
20.46	288
20.464	286
20.468	288
20.472	287
20.476	288
20.48	291
20.484	300
20.488	281
20.492	287
20.496	284
20.5	279
20.504	285
20.508	302
20.512	298
20.516	280
20.52	290
20.524	284
20.528	286
20.532	285
20.536	287
20.54	301
20.544	291
20.548	302
20.552	309
20.556	275
20.56	272
20.564	272
20.568	283
20.572	287
20.576	282
20.58	292
20.584	294
20.588	288
20.592	291
20.596	276
20.6	276
20.604	294
20.608	288
20.612	288
20.616	284
20.62	298
20.624	288
20.628	264
20.632	301
20.636	305
20.64	295
20.644	290
20.648	284
20.652	265
20.656	268
20.66	274
